# Kion output data file: K_Xe_v_6_hp_orth - gnuplot format
# Units: Particle units. [q] = MeV, [E] = keV, [K] = 1
# K_ion(E,q).
# Each column is new E; each row is new q.
# First column is q values; first row is E values.
q\E          +1.00000e-01 +2.34035e-01 +5.47723e-01 +1.28186e+00 +3.00000e+00 
+5.00000e-03 +6.13992e-01 +7.87644e-02 +9.63633e-03 +6.28145e-03 +3.50884e-04 
+5.21301e-03 +6.80511e-01 +9.04083e-02 +1.05398e-02 +6.85044e-03 +3.82738e-04 
+5.43509e-03 +7.56165e-01 +1.03998e-01 +1.15362e-02 +7.47282e-03 +4.17607e-04 
+5.66663e-03 +8.42879e-01 +1.19861e-01 +1.26371e-02 +8.15388e-03 +4.55800e-04 
+5.90804e-03 +9.43037e-01 +1.38365e-01 +1.38561e-02 +8.89949e-03 +4.97659e-04 
+6.15973e-03 +1.05947e+00 +1.59927e-01 +1.52089e-02 +9.71611e-03 +5.43568e-04 
+6.42214e-03 +1.19527e+00 +1.85005e-01 +1.67146e-02 +1.06109e-02 +5.93954e-04 
+6.69574e-03 +1.35337e+00 +2.14097e-01 +1.83957e-02 +1.15919e-02 +6.49299e-04 
+6.98099e-03 +1.53558e+00 +2.47731e-01 +2.02795e-02 +1.26677e-02 +7.10142e-04 
+7.27839e-03 +1.74104e+00 +2.86450e-01 +2.23993e-02 +1.38483e-02 +7.77089e-04 
+7.58846e-03 +1.96394e+00 +3.30791e-01 +2.47959e-02 +1.51442e-02 +8.50826e-04 
+7.91174e-03 +2.19103e+00 +3.81255e-01 +2.75199e-02 +1.65675e-02 +9.32126e-04 
+8.24879e-03 +2.40009e+00 +4.38278e-01 +3.06345e-02 +1.81313e-02 +1.02187e-03 
+8.60020e-03 +2.56181e+00 +5.02187e-01 +3.42191e-02 +1.98500e-02 +1.12104e-03 
+8.96658e-03 +2.64703e+00 +5.73178e-01 +3.83739e-02 +2.17397e-02 +1.23079e-03 
+9.34857e-03 +2.63895e+00 +6.51298e-01 +4.32259e-02 +2.38179e-02 +1.35240e-03 
+9.74683e-03 +2.54303e+00 +7.36486e-01 +4.89366e-02 +2.61038e-02 +1.48736e-03 
+1.01621e-02 +2.38488e+00 +8.28686e-01 +5.57105e-02 +2.86183e-02 +1.63736e-03 
+1.05950e-02 +2.19412e+00 +9.28078e-01 +6.38064e-02 +3.13842e-02 +1.80435e-03 
+1.10463e-02 +1.98778e+00 +1.03544e+00 +7.35490e-02 +3.44261e-02 +1.99061e-03 
+1.15169e-02 +1.76865e+00 +1.15256e+00 +8.53410e-02 +3.77702e-02 +2.19873e-03 
+1.20076e-02 +1.53717e+00 +1.28229e+00 +9.96732e-02 +4.14446e-02 +2.43174e-03 
+1.25191e-02 +1.30137e+00 +1.42736e+00 +1.17128e-01 +4.54789e-02 +2.69317e-03 
+1.30524e-02 +1.07640e+00 +1.58629e+00 +1.38372e-01 +4.99039e-02 +2.98712e-03 
+1.36085e-02 +8.77355e-01 +1.74569e+00 +1.64120e-01 +5.47516e-02 +3.31842e-03 
+1.41882e-02 +7.13288e-01 +1.87367e+00 +1.95072e-01 +6.00545e-02 +3.69269e-03 
+1.47927e-02 +5.85755e-01 +1.92884e+00 +2.31782e-01 +6.58457e-02 +4.11660e-03 
+1.54229e-02 +4.90766e-01 +1.89249e+00 +2.74467e-01 +7.21585e-02 +4.59795e-03 
+1.60799e-02 +4.21780e-01 +1.79014e+00 +3.22726e-01 +7.90272e-02 +5.14602e-03 
+1.67649e-02 +3.72085e-01 +1.66405e+00 +3.75208e-01 +8.64886e-02 +5.77176e-03 
+1.74792e-02 +3.36066e-01 +1.53642e+00 +4.29291e-01 +9.45849e-02 +6.48818e-03 
+1.82238e-02 +3.09539e-01 +1.41101e+00 +4.81003e-01 +1.03370e-01 +7.31075e-03 
+1.90002e-02 +2.89543e-01 +1.28881e+00 +5.25567e-01 +1.12919e-01 +8.25783e-03 
+1.98096e-02 +2.73953e-01 +1.17185e+00 +5.59188e-01 +1.23347e-01 +9.35126e-03 
+2.06535e-02 +2.61131e-01 +1.06107e+00 +5.82174e-01 +1.34832e-01 +1.06170e-02 
+2.15334e-02 +2.49710e-01 +9.55776e-01 +5.99673e-01 +1.47653e-01 +1.20858e-02 
+2.24507e-02 +2.38521e-01 +8.54707e-01 +6.08837e-01 +1.62231e-01 +1.37939e-02 
+2.34072e-02 +2.26605e-01 +7.56997e-01 +5.80899e-01 +1.79169e-01 +1.57839e-02 
+2.44043e-02 +2.13277e-01 +6.62495e-01 +5.03919e-01 +1.99270e-01 +1.81052e-02 
+2.54440e-02 +1.98180e-01 +5.71684e-01 +4.22988e-01 +2.23454e-01 +2.08147e-02 
+2.65280e-02 +1.81295e-01 +4.85454e-01 +3.63539e-01 +2.52502e-01 +2.39763e-02 
+2.76581e-02 +1.62916e-01 +4.04891e-01 +3.15593e-01 +2.86466e-01 +2.76603e-02 
+2.88364e-02 +1.43573e-01 +3.31096e-01 +2.71833e-01 +3.23653e-01 +3.19408e-02 
+3.00648e-02 +1.23935e-01 +2.65041e-01 +2.32067e-01 +3.59294e-01 +3.68917e-02 
+3.13456e-02 +1.04708e-01 +2.07451e-01 +1.96937e-01 +3.84759e-01 +4.25796e-02 
+3.26810e-02 +8.65396e-02 +1.58700e-01 +1.66133e-01 +3.89906e-01 +4.90545e-02 
+3.40733e-02 +6.99515e-02 +1.18764e-01 +1.38904e-01 +3.73370e-01 +5.63375e-02 
+3.55249e-02 +5.53019e-02 +8.72090e-02 +1.14642e-01 +3.47872e-01 +6.44092e-02 
+3.70383e-02 +4.27739e-02 +6.32442e-02 +9.30665e-02 +3.08118e-01 +7.32054e-02 
+3.86162e-02 +3.23897e-02 +4.58105e-02 +7.41480e-02 +2.69120e-01 +8.26321e-02 
+4.02613e-02 +2.40404e-02 +3.36996e-02 +5.79504e-02 +2.40079e-01 +9.26187e-02 
+4.19764e-02 +1.75248e-02 +2.56765e-02 +4.44946e-02 +2.09827e-01 +1.03220e-01 
+4.37647e-02 +1.25878e-02 +2.05878e-02 +3.36840e-02 +1.79334e-01 +1.14717e-01 
+4.56291e-02 +8.95550e-03 +1.74414e-02 +2.52935e-02 +1.51787e-01 +1.27491e-01 
+4.75730e-02 +6.36152e-03 +1.54518e-02 +1.89978e-02 +1.28349e-01 +1.41102e-01 
+4.95997e-02 +4.56493e-03 +1.40516e-02 +1.44197e-02 +1.08897e-01 +1.52004e-01 
+5.17127e-02 +3.35980e-03 +1.28746e-02 +1.11772e-02 +9.28731e-02 +1.51473e-01 
+5.39158e-02 +2.57825e-03 +1.17210e-02 +8.92062e-03 +7.96598e-02 +1.35615e-01 
+5.62127e-02 +2.08871e-03 +1.05136e-02 +7.35465e-03 +6.87033e-02 +1.18973e-01 
+5.86074e-02 +1.79177e-03 +9.25391e-03 +6.24743e-03 +5.95322e-02 +1.05198e-01 
+6.11042e-02 +1.61478e-03 +7.98432e-03 +5.42894e-03 +5.17560e-02 +9.31249e-02 
+6.37073e-02 +1.50647e-03 +6.75980e-03 +4.78314e-03 +4.50625e-02 +7.85947e-02 
+6.64213e-02 +1.43209e-03 +5.62943e-03 +4.23710e-03 +3.92145e-02 +6.56419e-02 
+6.92510e-02 +1.36934e-03 +4.62721e-03 +3.74962e-03 +3.40428e-02 +5.54150e-02 
+7.22012e-02 +1.30502e-03 +3.76957e-03 +3.30093e-03 +2.94347e-02 +4.73544e-02 
+7.52770e-02 +1.23252e-03 +3.05741e-03 +2.88423e-03 +2.53198e-02 +4.07107e-02 
+7.84840e-02 +1.14977e-03 +2.48021e-03 +2.49944e-03 +2.16546e-02 +3.49861e-02 
+8.18275e-02 +1.05769e-03 +2.02064e-03 +2.14894e-03 +1.84105e-02 +2.99212e-02 
+8.53135e-02 +9.58990e-04 +1.65865e-03 +1.83499e-03 +1.55637e-02 +2.53995e-02 
+8.89479e-02 +8.57133e-04 +1.37441e-03 +1.55846e-03 +1.30896e-02 +2.13754e-02 
+9.27373e-02 +7.55607e-04 +1.15019e-03 +1.31854e-03 +1.09601e-02 +1.78303e-02 
+9.66880e-02 +6.57450e-04 +9.71260e-04 +1.11291e-03 +9.14345e-03 +1.47500e-02 
+1.00807e-01 +5.65027e-04 +8.26042e-04 +9.38207e-04 +7.60537e-03 +1.21128e-02 
+1.05102e-01 +4.79982e-04 +7.05851e-04 +7.90525e-04 +6.31082e-03 +9.88685e-03 
+1.09579e-01 +4.03299e-04 +6.04424e-04 +6.65895e-04 +5.22580e-03 +8.03128e-03 
+1.14247e-01 +3.35382e-04 +5.17385e-04 +5.60606e-04 +4.31884e-03 +6.49999e-03 
+1.19114e-01 +2.76166e-04 +4.41766e-04 +4.71404e-04 +3.56184e-03 +5.24577e-03 
+1.24189e-01 +2.25252e-04 +3.75582e-04 +3.95568e-04 +2.93047e-03 +4.22373e-03 
+1.29480e-01 +1.82026e-04 +3.17507e-04 +3.30906e-04 +2.40417e-03 +3.39349e-03 
+1.34996e-01 +1.45757e-04 +2.66623e-04 +2.75684e-04 +1.96582e-03 +2.72026e-03 
+1.40747e-01 +1.15666e-04 +2.22248e-04 +2.28543e-04 +1.60128e-03 +2.17501e-03 
+1.46743e-01 +9.09715e-05 +1.83829e-04 +1.88405e-04 +1.29887e-03 +1.73394e-03 
+1.52994e-01 +7.09219e-05 +1.50866e-04 +1.54386e-04 +1.04888e-03 +1.37776e-03 
+1.59512e-01 +5.48138e-05 +1.22876e-04 +1.25738e-04 +8.43180e-04 +1.09089e-03 
+1.66307e-01 +4.20071e-05 +9.93670e-05 +1.01799e-04 +6.74836e-04 +8.60642e-04 
+1.73392e-01 +3.19332e-05 +7.98448e-05 +8.19668e-05 +5.37909e-04 +6.76659e-04 
+1.80779e-01 +2.40915e-05 +6.38155e-05 +6.56851e-05 +4.27260e-04 +5.30384e-04 
+1.88480e-01 +1.80481e-05 +5.07972e-05 +5.24381e-05 +3.38435e-04 +4.14716e-04 
+1.96510e-01 +1.34374e-05 +4.03311e-05 +4.17522e-05 +2.67582e-04 +3.23747e-04 
+2.04882e-01 +9.95336e-06 +3.19927e-05 +3.31983e-05 +2.11391e-04 +2.52569e-04 
+2.13610e-01 +7.34312e-06 +2.53992e-05 +2.63955e-05 +1.67047e-04 +1.97122e-04 
+2.22710e-01 +5.40385e-06 +2.02149e-05 +2.10121e-05 +1.32182e-04 +1.54076e-04 
+2.32198e-01 +3.97304e-06 +1.61525e-05 +1.67655e-05 +1.04835e-04 +1.20730e-04 
+2.42090e-01 +2.92339e-06 +1.29720e-05 +1.34197e-05 +8.33986e-05 +9.49136e-05 
+2.52403e-01 +2.15689e-06 +1.04773e-05 +1.07815e-05 +6.65813e-05 +7.49080e-05 
+2.63156e-01 +1.59837e-06 +8.51210e-06 +8.69584e-06 +5.33545e-05 +5.93659e-05 
+2.74367e-01 +1.19179e-06 +6.95345e-06 +7.03979e-06 +4.29112e-05 +4.72438e-05 
+2.86055e-01 +8.95197e-07 +5.70697e-06 +5.71767e-06 +3.46250e-05 +3.77409e-05 
+2.98241e-01 +6.78080e-07 +4.70081e-06 +4.65565e-06 +2.80134e-05 +3.02480e-05 
+3.10947e-01 +5.18100e-07 +3.88111e-06 +3.79727e-06 +2.27078e-05 +2.43042e-05 
+3.24194e-01 +3.99297e-07 +3.20771e-06 +3.09950e-06 +1.84270e-05 +1.95617e-05 
+3.38005e-01 +3.10196e-07 +2.65063e-06 +2.52956e-06 +1.49568e-05 +1.57578e-05 
+3.52404e-01 +2.42665e-07 +2.18749e-06 +2.06236e-06 +1.21332e-05 +1.26938e-05 
+3.67417e-01 +1.90929e-07 +1.80126e-06 +1.67853e-06 +9.83015e-06 +1.02180e-05 
+3.83070e-01 +1.50878e-07 +1.47882e-06 +1.36292e-06 +7.94909e-06 +8.21353e-06 
+3.99389e-01 +1.19587e-07 +1.20981e-06 +1.10349e-06 +6.41249e-06 +6.58937e-06 
+4.16404e-01 +9.49520e-08 +9.85827e-07 +8.90557e-07 +5.15835e-06 +5.27372e-06 
+4.34143e-01 +7.54383e-08 +7.99930e-07 +7.16199e-07 +4.13658e-06 +4.20926e-06 
+4.52638e-01 +5.99155e-08 +6.46246e-07 +5.73867e-07 +3.30622e-06 +3.34970e-06 
+4.71922e-01 +4.75354e-08 +5.19774e-07 +4.58095e-07 +2.63347e-06 +2.65738e-06 
+4.92026e-01 +3.76505e-08 +4.16212e-07 +3.64299e-07 +2.09027e-06 +2.10140e-06 
+5.12987e-01 +2.97583e-08 +3.31837e-07 +2.88624e-07 +1.65332e-06 +1.65640e-06 
+5.34841e-01 +2.34637e-08 +2.63451e-07 +2.27830e-07 +1.30322e-06 +1.30147e-06 
+5.57626e-01 +1.84521e-08 +2.08309e-07 +1.79203e-07 +1.02379e-06 +1.01939e-06 
+5.81382e-01 +1.44714e-08 +1.64069e-07 +1.40472e-07 +8.01658e-07 +7.96029e-07 
+6.06150e-01 +1.13181e-08 +1.28747e-07 +1.09752e-07 +6.25764e-07 +6.19790e-07 
+6.31973e-01 +8.82757e-09 +1.00677e-07 +8.54844e-08 +4.87008e-07 +4.81223e-07 
+6.58895e-01 +6.86650e-09 +7.84676e-08 +6.63873e-08 +3.77947e-07 +3.72645e-07 
+6.86965e-01 +5.32716e-09 +6.09697e-08 +5.14143e-08 +2.92531e-07 +2.87844e-07 
+7.16231e-01 +4.12257e-09 +4.72377e-08 +3.97156e-08 +2.25852e-07 +2.21818e-07 
+7.46744e-01 +3.18280e-09 +3.65008e-08 +3.06051e-08 +1.73965e-07 +1.70563e-07 
+7.78556e-01 +2.45175e-09 +2.81347e-08 +2.35319e-08 +1.33708e-07 +1.30884e-07 
+8.11724e-01 +1.88465e-09 +2.16367e-08 +1.80562e-08 +1.02560e-07 +1.00246e-07 
+8.46304e-01 +1.44590e-09 +1.66046e-08 +1.38283e-08 +7.85231e-08 +7.66460e-08 
+8.82358e-01 +1.10729e-09 +1.27185e-08 +1.05721e-08 +6.00174e-08 +5.85088e-08 
+9.19948e-01 +8.46568e-10 +9.72481e-09 +8.06979e-09 +4.58021e-08 +4.45987e-08 
+9.59139e-01 +6.46252e-10 +7.42400e-09 +6.15093e-09 +3.49046e-08 +3.39509e-08 
+1.00000e+00 +4.92654e-10 +5.65946e-09 +4.68229e-09 +2.65661e-08 +2.58146e-08 
